#
# AEG Box Test Suite by I. D. Flintoft, L. Dawson, J. F. Dawson and A. C. Marvin is 
# licensed under a Creative Commons Attribution 4.0 International License.
# Based on a work at https://bitbucket.org/uoyaeg/aegboxts.
#
# If you use or make derivatives of the test suite please attribute the original
# work to I. D. Flintoft, L. Dawson, J. F. Dawson and A. C. Marvin, Applied
# Electromagnetics Group, Department of Electronics, University of York, UK.
#
#       f(Hz)      Re(e11)      Im(e11) 
        5e+08  8.74602e-11 -9.62248e-11
  5.40201e+08  8.63191e-11 -9.60302e-11
  5.80402e+08  8.52018e-11 -9.55732e-11
  6.20603e+08  8.41077e-11 -9.48838e-11
  6.60804e+08  8.30364e-11 -9.39917e-11
  7.01005e+08  8.19873e-11 -9.29266e-11
  7.41206e+08  8.09599e-11 -9.17185e-11
  7.81407e+08  7.99537e-11  -9.0397e-11
  8.21608e+08  7.89682e-11 -8.89919e-11
  8.61809e+08  7.80028e-11 -8.75331e-11
   9.0201e+08  7.70569e-11 -8.60503e-11
  9.42211e+08  7.61302e-11 -8.45734e-11
  9.82412e+08   7.5222e-11  -8.3132e-11
  1.02261e+09  7.43319e-11  -8.1756e-11
  1.06281e+09  7.34592e-11 -8.04751e-11
  1.10302e+09  7.26036e-11 -7.93051e-11
  1.14322e+09  7.17644e-11 -7.82355e-11
  1.18342e+09  7.09411e-11 -7.72527e-11
  1.22362e+09  7.01333e-11 -7.63433e-11
  1.26382e+09  6.93403e-11 -7.54937e-11
  1.30402e+09  6.85617e-11 -7.46904e-11
  1.34422e+09   6.7797e-11   -7.392e-11
  1.38442e+09  6.70455e-11 -7.31688e-11
  1.42462e+09  6.63069e-11 -7.24235e-11
  1.46482e+09  6.55805e-11 -7.16724e-11
  1.50503e+09  6.48659e-11 -7.09142e-11
  1.54523e+09  6.41625e-11   -7.015e-11
  1.58543e+09  6.34698e-11 -6.93814e-11
  1.62563e+09  6.27872e-11 -6.86097e-11
  1.66583e+09  6.21143e-11 -6.78363e-11
  1.70603e+09  6.14505e-11 -6.70627e-11
  1.74623e+09  6.07953e-11 -6.62902e-11
  1.78643e+09  6.01482e-11 -6.55203e-11
  1.82663e+09   5.9509e-11 -6.47542e-11
  1.86683e+09  5.88777e-11 -6.39935e-11
  1.90704e+09  5.82543e-11 -6.32395e-11
  1.94724e+09  5.76391e-11 -6.24911e-11
  1.98744e+09  5.70319e-11  -6.1744e-11
  2.02764e+09  5.64329e-11  -6.0994e-11
  2.06784e+09  5.58421e-11 -6.02365e-11
  2.10804e+09  5.52596e-11 -5.94673e-11
  2.14824e+09  5.46856e-11 -5.86818e-11
  2.18844e+09  5.41199e-11 -5.78757e-11
  2.22864e+09  5.35628e-11 -5.70445e-11
  2.26884e+09  5.30142e-11 -5.61867e-11
  2.30905e+09  5.24744e-11 -5.53128e-11
  2.34925e+09  5.19433e-11 -5.44365e-11
  2.38945e+09  5.14211e-11  -5.3572e-11
  2.42965e+09  5.09079e-11 -5.27329e-11
  2.46985e+09  5.04039e-11 -5.19333e-11
  2.51005e+09  4.99091e-11 -5.11869e-11
  2.55025e+09  4.94236e-11 -5.05077e-11
  2.59045e+09  4.89476e-11 -4.99067e-11
  2.63065e+09  4.84812e-11 -4.93821e-11
  2.67085e+09  4.80245e-11  -4.8929e-11
  2.71106e+09  4.75775e-11 -4.85423e-11
  2.75126e+09  4.71405e-11 -4.82172e-11
  2.79146e+09  4.67134e-11 -4.79487e-11
  2.83166e+09  4.62965e-11 -4.77317e-11
  2.87186e+09  4.58893e-11 -4.75613e-11
  2.91206e+09  4.54913e-11 -4.74325e-11
  2.95226e+09  4.51021e-11 -4.73403e-11
  2.99246e+09   4.4721e-11 -4.72798e-11
  3.03266e+09  4.43475e-11 -4.72459e-11
  3.07286e+09  4.39812e-11 -4.72337e-11
  3.11307e+09  4.36215e-11 -4.72383e-11
  3.15327e+09  4.32679e-11 -4.72545e-11
  3.19347e+09  4.29198e-11 -4.72775e-11
  3.23367e+09  4.25767e-11 -4.73023e-11
  3.27387e+09  4.22382e-11 -4.73238e-11
  3.31407e+09  4.19036e-11 -4.73372e-11
  3.35427e+09  4.15725e-11 -4.73374e-11
  3.39447e+09  4.12444e-11 -4.73223e-11
  3.43467e+09  4.09193e-11  -4.7292e-11
  3.47487e+09  4.05975e-11 -4.72474e-11
  3.51508e+09   4.0279e-11 -4.71889e-11
  3.55528e+09   3.9964e-11 -4.71171e-11
  3.59548e+09  3.96525e-11 -4.70326e-11
  3.63568e+09  3.93448e-11 -4.69361e-11
  3.67588e+09   3.9041e-11 -4.68281e-11
  3.71608e+09  3.87411e-11 -4.67091e-11
  3.75628e+09  3.84453e-11 -4.65799e-11
  3.79648e+09  3.81538e-11 -4.64409e-11
  3.83668e+09  3.78667e-11 -4.62928e-11
  3.87688e+09  3.75841e-11 -4.61361e-11
  3.91709e+09  3.73062e-11 -4.59714e-11
  3.95729e+09  3.70332e-11 -4.57994e-11
  3.99749e+09  3.67659e-11 -4.56206e-11
  4.03769e+09  3.65051e-11 -4.54356e-11
  4.07789e+09  3.62515e-11 -4.52449e-11
  4.11809e+09  3.60058e-11 -4.50493e-11
  4.15829e+09  3.57689e-11 -4.48492e-11
  4.19849e+09  3.55414e-11 -4.46453e-11
  4.23869e+09  3.53241e-11 -4.44381e-11
  4.27889e+09  3.51178e-11 -4.42283e-11
   4.3191e+09  3.49232e-11 -4.40164e-11
   4.3593e+09  3.47411e-11 -4.38029e-11
   4.3995e+09  3.45722e-11 -4.35886e-11
   4.4397e+09  3.44174e-11 -4.33739e-11
   4.4799e+09  3.42772e-11 -4.31589e-11
   4.5201e+09  3.41525e-11 -4.29433e-11
   4.5603e+09  3.40431e-11 -4.27269e-11
   4.6005e+09  3.39481e-11 -4.25097e-11
   4.6407e+09  3.38667e-11 -4.22914e-11
   4.6809e+09   3.3798e-11 -4.20719e-11
  4.72111e+09  3.37412e-11 -4.18509e-11
  4.76131e+09  3.36955e-11 -4.16284e-11
  4.80151e+09    3.366e-11  -4.1404e-11
  4.84171e+09  3.36339e-11 -4.11777e-11
  4.88191e+09  3.36163e-11 -4.09492e-11
  4.92211e+09  3.36064e-11 -4.07184e-11
  4.96231e+09  3.36034e-11 -4.04851e-11
  5.00251e+09  3.36063e-11 -4.02492e-11
  5.04271e+09  3.36144e-11 -4.00103e-11
  5.08291e+09  3.36268e-11 -3.97687e-11
  5.12312e+09  3.36427e-11 -3.95252e-11
  5.16332e+09  3.36612e-11 -3.92816e-11
  5.20352e+09  3.36815e-11 -3.90393e-11
  5.24372e+09  3.37028e-11 -3.87999e-11
  5.28392e+09  3.37241e-11 -3.85649e-11
  5.32412e+09  3.37447e-11 -3.83359e-11
  5.36432e+09  3.37637e-11 -3.81144e-11
  5.40452e+09  3.37803e-11 -3.79019e-11
  5.44472e+09  3.37936e-11    -3.77e-11
  5.48492e+09  3.38028e-11 -3.75101e-11
  5.52513e+09   3.3807e-11  -3.7334e-11
  5.56533e+09  3.38055e-11  -3.7173e-11
  5.60553e+09  3.37978e-11 -3.70276e-11
  5.64573e+09  3.37844e-11  -3.6897e-11
  5.68593e+09  3.37656e-11   -3.678e-11
  5.72613e+09  3.37417e-11  -3.6676e-11
  5.76633e+09  3.37131e-11 -3.65837e-11
  5.80653e+09  3.36802e-11 -3.65024e-11
  5.84673e+09  3.36434e-11 -3.64311e-11
  5.88693e+09  3.36029e-11 -3.63687e-11
  5.92714e+09  3.35591e-11 -3.63144e-11
  5.96734e+09  3.35124e-11 -3.62673e-11
  6.00754e+09  3.34632e-11 -3.62262e-11
  6.04774e+09  3.34119e-11 -3.61904e-11
  6.08794e+09  3.33587e-11 -3.61589e-11
  6.12814e+09   3.3304e-11 -3.61306e-11
  6.16834e+09  3.32482e-11 -3.61047e-11
  6.20854e+09  3.31917e-11 -3.60803e-11
  6.24874e+09  3.31348e-11 -3.60562e-11
  6.28894e+09  3.30779e-11 -3.60317e-11
  6.32915e+09  3.30213e-11 -3.60057e-11
  6.36935e+09  3.29654e-11 -3.59773e-11
  6.40955e+09  3.29106e-11 -3.59458e-11
  6.44975e+09  3.28571e-11 -3.59111e-11
  6.48995e+09  3.28054e-11 -3.58735e-11
  6.53015e+09  3.27559e-11 -3.58332e-11
  6.57035e+09  3.27088e-11 -3.57903e-11
  6.61055e+09   3.2664e-11 -3.57451e-11
  6.65075e+09  3.26217e-11 -3.56977e-11
  6.69095e+09  3.25817e-11 -3.56484e-11
  6.73116e+09  3.25439e-11 -3.55974e-11
  6.77136e+09  3.25084e-11 -3.55448e-11
  6.81156e+09   3.2475e-11 -3.54909e-11
  6.85176e+09  3.24438e-11 -3.54359e-11
  6.89196e+09  3.24146e-11 -3.53799e-11
  6.93216e+09  3.23874e-11 -3.53231e-11
  6.97236e+09  3.23622e-11 -3.52659e-11
  7.01256e+09  3.23389e-11 -3.52082e-11
  7.05276e+09  3.23174e-11 -3.51505e-11
  7.09296e+09  3.22977e-11 -3.50927e-11
  7.13317e+09  3.22798e-11 -3.50353e-11
  7.17337e+09  3.22636e-11 -3.49783e-11
  7.21357e+09  3.22491e-11 -3.49219e-11
  7.25377e+09  3.22361e-11 -3.48664e-11
  7.29397e+09  3.22247e-11 -3.48119e-11
  7.33417e+09  3.22148e-11 -3.47587e-11
  7.37437e+09  3.22063e-11 -3.47069e-11
  7.41457e+09  3.21992e-11 -3.46568e-11
  7.45477e+09  3.21935e-11 -3.46082e-11
  7.49497e+09   3.2189e-11 -3.45611e-11
  7.53518e+09  3.21858e-11 -3.45157e-11
  7.57538e+09  3.21837e-11 -3.44717e-11
  7.61558e+09  3.21828e-11 -3.44292e-11
  7.65578e+09   3.2183e-11 -3.43882e-11
  7.69598e+09  3.21841e-11 -3.43487e-11
  7.73618e+09  3.21863e-11 -3.43106e-11
  7.77638e+09  3.21894e-11 -3.42738e-11
  7.81658e+09  3.21934e-11 -3.42385e-11
  7.85678e+09  3.21981e-11 -3.42045e-11
  7.89698e+09  3.22037e-11 -3.41719e-11
  7.93719e+09    3.221e-11 -3.41406e-11
  7.97739e+09  3.22169e-11 -3.41105e-11
  8.01759e+09  3.22245e-11 -3.40818e-11
  8.05779e+09  3.22326e-11 -3.40542e-11
  8.09799e+09  3.22412e-11 -3.40279e-11
  8.13819e+09  3.22503e-11 -3.40028e-11
  8.17839e+09  3.22598e-11 -3.39789e-11
  8.21859e+09  3.22696e-11 -3.39561e-11
  8.25879e+09  3.22798e-11 -3.39345e-11
  8.29899e+09  3.22902e-11  -3.3914e-11
   8.3392e+09  3.23008e-11 -3.38945e-11
   8.3794e+09  3.23115e-11 -3.38761e-11
   8.4196e+09  3.23224e-11 -3.38588e-11
   8.4598e+09  3.23333e-11 -3.38423e-11
      8.5e+09  3.23441e-11 -3.38267e-11
